1536036646246, 240.76549738685628
1536036646438, 241.0741230401422
1536036646616, 241.55559228010665
1536036646784, 240.91669421007998
1536036646977, 240.93752065756
1536036647161, 240.95314049317
1536036647345, 241.2148553698775
1536036647522, 241.66114152740812
1536036647717, 240.7458561455561
1536036647896, 240.55939210916708
1536036648106, 240.6695440818753
1536036648284, 240.75215806140648
1536036648461, 240.31411854605486
1536036648597, 239.73558890954115
1536036648769, 239.80169168215588
1536036648964, 240.1012687616169
1536036649111, 240.32595157121267
1536036649282, 240.2444636784095
1536036649423, 239.68334775880712
1536036649574, 239.76251081910533
1536036649744, 239.821883114329
1536036649916, 240.11641233574676
1536036650056, 240.33730925181007
1536036650214, 239.50298193885754
1536036650383, 239.37723645414314
1536036650554, 239.53292734060736
1536036650723, 240.14969550545553
1536036650887, 240.61227162909165
1536036651028, 239.70920372181874
1536036651201, 239.28190279136405
1536036651364, 239.21142709352304
1536036651530, 239.65857032014227
1536036651707, 240.2439277401067
1536036651891, 240.93294580508
1536036652071, 240.19970935381002
1536036652213, 240.14978201535752
1536036652394, 240.36233651151815
1536036652570, 240.7717523836386
1536036652740, 241.32881428772896
1536036652916, 241.74661071579672
1536036653061, 240.80995803684755
1536036653251, 240.60746852763566
1536036653394, 240.45560139572675
1536036653579, 241.09170104679507
1536036653734, 241.5687757850963
1536036653877, 242.17658183882224
1536036654037, 241.38243637911668
1536036654198, 241.2868272843375
1536036654363, 241.21512046325313
1536036654520, 241.41134034743985
1536036654703, 241.8085052605799
1536036654877, 242.10637894543493
1536036655054, 241.0797842090762
1536036655234, 240.80983815680713
1536036655402, 240.60737861760535
1536036655576, 240.705533963204
1536036655772, 240.779150472403
1536036655921, 239.83436285430224
1536036656103, 239.62577214072667
1536036656271, 239.469329105545
1536036656432, 239.85199682915874
1536036656569, 240.13899762186907
1536036656738, 239.3542482164018
1536036656900, 239.26568616230134
1536036657041, 239.199264621726
1536036657226, 239.3994484662945
1536036657403, 239.79958634972087
1536036657570, 238.84968976229067
1536036657742, 238.637267321718
1536036657918, 238.4779504912885
1536036658099, 238.85846286846638
1536036658272, 239.14384715134977
1536036658451, 238.35788536351234
1536036658626, 238.26841402263426
1536036658775, 238.4513105169757
1536036658965, 238.83848288773177
1536036659109, 239.12886216579884
1536036659295, 238.09664662434912
1536036659439, 238.82248496826185
1536036659580, 239.36686372619639
1536036659784, 240.0251477946473
1536036659977, 240.76886084598547
1536036660134, 241.0766456344891
1536036660325, 240.55748422586683
1536036660500, 240.66811316940013
1536036660717, 241.0010848770501
1536036660902, 241.50081365778757
1536036661116, 241.87561024334067
1536036661310, 241.1567076825055
1536036661497, 241.11753076187912
1536036661680, 241.33814807140934
1536036661909, 241.753611053557
1536036662088, 241.06520829016773
1536036662280, 240.7989062176258
1536036662472, 240.59917966321936
1536036662671, 240.9493847474145
1536036662870, 241.46203856056087
1536036663010, 240.59652892042067
1536036663191, 240.4473966903155
1536036663401, 240.58554751773661
1536036663587, 240.93916063830247
1536036663749, 240.20437047872684
1536036663928, 239.90327785904515
1536036664110, 239.92745839428386
1536036664317, 240.4455937957129
1536036664499, 240.83419534678467
1536036664689, 240.1256465100885
1536036664887, 239.84423488256638
1536036665072, 240.13317616192478
1536036665258, 240.59988212144358
1536036665452, 239.6999115910827
1536036665644, 239.52493369331202
1536036665843, 239.643700269984
1536036665997, 239.982775202488
1536036666177, 240.487081401866
1536036666345, 239.6153110513995
1536036666533, 239.46148328854963
1536036666721, 239.59611246641222
1536036666919, 240.19708434980916
1536036667115, 240.64781326235686
1536036667304, 239.98585994676765
1536036667490, 239.73939496007574
1536036667678, 240.0545462200568
1536036667871, 240.2909096650426
1536036668069, 239.46818224878194
1536036668243, 239.35113668658647
1536036668433, 239.51335251493987
1536036668612, 239.8850143862049
1536036668799, 240.16376078965368
1536036668983, 239.37282059224026
1536036669179, 239.2796154441802
1536036669379, 239.45971158313515
1536036669563, 239.84478368735137
1536036669753, 238.88358776551354
1536036669922, 238.66269082413515
1536036670133, 238.74701811810138
1536036670289, 238.81026358857605
1536036670470, 238.35769769143204
1536036670653, 238.01827326857403
1536036670858, 238.01370495143053
1536036671044, 238.5102787135729
1536036671253, 238.63270903517966
1536036671441, 237.97453177638474
1536036671649, 237.73089883228855
1536036671787, 238.04817412421642
1536036671973, 238.5361305931623
1536036672151, 237.90209794487174
1536036672357, 237.67657345865382
1536036672560, 238.00743009399037
1536036672718, 238.50557257049277
1536036672901, 237.6291794278696
1536036673096, 237.7218845709022
1536036673296, 237.79141342817667
1536036673489, 238.34356007113252
1536036673665, 237.5076700533494
1536036673849, 237.38075254001205
1536036674035, 237.53556440500904
1536036674242, 238.15167330375678
1536036674455, 237.6137549778176
1536036674593, 236.9603162333632
1536036674794, 237.2202371750224
1536036674945, 237.4151778812668
1536036675131, 238.0613834109501
1536036675316, 237.54603755821256
1536036675497, 237.65952816865942
1536036675707, 237.74464612649456
1536036675895, 238.30848459487092
1536036676069, 237.98136344615318
1536036676231, 237.9860225846149
1536036676386, 238.23951693846118
1536036676583, 238.67963770384588
1536036676785, 239.25972827788442
1536036676976, 238.69479620841332
1536036677165, 238.52109715631
1536036677351, 238.6408228672325
1536036677554, 239.23061715042437
1536036677732, 238.42296286281828
1536036677931, 238.3172221471137
1536036678074, 238.48791661033528
1536036678273, 238.86593745775144
1536036678437, 238.14945309331358
1536036678583, 237.8620898199852
1536036678797, 237.8965673649889
1536036678987, 238.42242552374168
1536036679175, 237.81681914280625
1536036679349, 237.3626143571047
1536036679546, 237.52196076782852
1536036679750, 237.89147057587138
1536036679929, 237.66860293190354
1536036680126, 237.50145219892767
1536036680318, 238.12608914919576
1536036680507, 238.84456686189682
1536036680699, 238.8834251464226
1536036680898, 238.91256885981696
1536036681089, 239.18442664486273
1536036681274, 239.88831998364705
1536036681426, 240.41623998773528
1536036681623, 240.06217999080147
1536036681810, 240.0466349931011
1536036682006, 240.53497624482583
1536036682152, 240.90123218361936
1536036682369, 240.1759241377145
1536036682565, 240.1319431032859
1536036682724, 240.0989573274644
1536036682880, 240.5742179955983
1536036683041, 240.18066349669874
1536036683223, 240.13549762252404
1536036683433, 240.35162321689302
1536036683616, 240.76371741266976
1536036683803, 240.07278805950233
1536036684003, 240.05459104462676
1536036684204, 240.29094328347009
1536036684386, 240.71820746260255
1536036684591, 240.7886555969519
1536036684779, 240.34149169771393
1536036684983, 240.25611877328544
1536036685163, 240.6920890799641
1536036685368, 241.26906680997308
1536036685546, 240.7018001074798
1536036685741, 240.52635008060986
1536036685948, 240.6447625604574
1536036686093, 240.98357192034305
1536036686284, 241.4876789402573
1536036686468, 240.86575920519297
1536036686653, 240.89931940389474
1536036686861, 240.92448955292105
1536036687046, 241.44336716469078
1536036687242, 240.58252537351808
1536036687423, 240.43689403013855
1536036687638, 240.5776705226039
1536036687789, 240.68325289195292
1536036688010, 240.0124396689647
1536036688202, 239.75932975172353
1536036688353, 239.81949731379265
1536036688539, 240.11462298534448
1536036688740, 239.58596723900837
1536036688926, 238.93947542925628
1536036689109, 238.7046065719422
1536036689317, 239.02845492895665
1536036689506, 238.5213411967175
1536036689707, 238.14100589753812
1536036689890, 238.1057544231536
1536036690091, 238.3293158173652
1536036690278, 237.9969868630239
1536036690462, 237.7477401472679
1536036690651, 238.31080511045093
1536036690840, 238.9831038328382
1536036691030, 238.98732787462865
1536036691214, 238.7404959059715
1536036691414, 238.8053719294786
1536036691557, 239.10402894710896
1536036691731, 239.5780217103317
1536036691907, 238.68351628274877
1536036692113, 238.26263721206158
1536036692290, 238.19697790904618
1536036692490, 238.39773343178464
1536036692683, 237.54830007383848
1536036692880, 237.41122505537885
1536036693052, 237.30841879153414
1536036693252, 237.7313140936506
1536036693427, 238.04848557023797
1536036693619, 237.28636417767848
1536036693802, 237.21477313325886
1536036694011, 237.41107984994414
1536036694149, 237.8083098874581
1536036694345, 237.10623241559358
1536036694534, 237.0796743116952
1536036694717, 237.0597557337714
1536036694912, 237.29481680032853
1536036695084, 236.97111260024639
1536036695276, 237.72833445018478
1536036695469, 238.54625083763858
1536036695611, 239.15968812822894
1536036695797, 239.8697660961717
1536036695935, 239.65232457212878
1536036696130, 239.73924342909658
1536036696316, 240.05443257182242
1536036696501, 240.5408244288668
1536036696719, 240.6556183216501
1536036696861, 240.4917137412376
1536036697051, 240.86878530592818
1536036697243, 241.40158897944613
1536036697424, 242.3011917345846
1536036697618, 242.97589380093845
1536036697811, 242.98192035070383
1536036698005, 243.48644026302787
1536036698201, 244.11483019727092
1536036698377, 243.83612264795318
1536036698564, 242.62709198596488
1536036698769, 242.22031898947367
1536036698944, 242.16523924210526
1536036699131, 242.37392943157894
1536036699302, 241.7804470736842
1536036699505, 241.33533530526316
1536036699684, 241.25150147894738
1536036699877, 241.68862610921053
1536036700054, 242.0164695819079
1536036700252, 241.26235218643092
1536036700436, 241.1967641398232
1536036700623, 241.39757310486738
1536036700817, 241.79817982865052
1536036700987, 242.0986348714879
1536036701167, 241.32397615361592
1536036701373, 240.99298211521193
1536036701569, 241.24473658640895
1536036701707, 241.6835524398067
1536036701918, 241.26266432985503
1536036702055, 240.69699824739126
1536036702236, 240.77274868554343
1536036702423, 240.82956151415758
1536036702562, 241.12217113561817
1536036702747, 240.84162835171364
1536036702927, 240.38122126378522
1536036703127, 240.28591594783893
1536036703297, 240.4644369608792
1536036703495, 240.8483277206594
1536036703706, 240.13624579049454
1536036703847, 239.8521843428709
1536036704030, 240.13913825715318
1536036704228, 240.6043536928649
1536036704422, 240.45326526964868
1536036704610, 240.0899489522365
1536036704825, 240.0674617141774
1536036704966, 240.30059628563305
1536036705151, 240.7254472142248
1536036705359, 240.0440854106686
1536036705547, 240.03306405800146
1536036705753, 240.2747980435011
1536036705914, 240.70609853262584
1536036706104, 240.02957389946937
1536036706295, 239.52218042460203
1536036706477, 239.3916353184515
1536036706676, 239.79372648883862
1536036706830, 240.09529486662896
1536036707005, 240.57147114997173
1536036707208, 239.92860336247878
1536036707375, 239.6964525218591
1536036707598, 239.77233939139433
1536036707798, 240.32925454354574
1536036707942, 240.7469409076593
1536036708105, 240.06020568074447
1536036708276, 240.04515426055835
1536036708455, 240.28386569541877
1536036708636, 240.71289927156408
1536036708829, 241.28467445367306
1536036709026, 240.7135058402548
1536036709186, 240.2851293801911
1536036709367, 240.21384703514332
1536036709539, 240.4103852763575
1536036709714, 240.80778895726812
1536036709888, 240.35584171795108
1536036710090, 240.0168812884633
1536036710285, 240.01266096634748
1536036710462, 240.2594957247606
1536036710674, 240.44462179357043
1536036710819, 240.08346634517784
1536036710991, 240.06259975888338
1536036711208, 240.29694981916253
1536036711351, 240.4727123643719
1536036711535, 240.10453427327892
1536036711709, 239.3284007049592
1536036711913, 239.2463005287194
1536036712085, 239.43472539653953
1536036712274, 239.82604404740465
1536036712447, 239.1195330355535
1536036712663, 239.0896497766651
1536036712818, 239.06723733249885
1536036713004, 239.30042799937414
